freq	real(S(1,1))
1.00000000000000000E-1	9.99999999999858780E-1
1.00000001000000016E7	9.99991019658287073E-1
2.00000000999999994E7	9.99964078979113324E-1
3.00000001000000038E7	9.99919178997494562E-1
4.00000001000000083E7	9.99856321438285534E-1
5.00000000999999994E7	9.99775508716698447E-1
6.00000000999999905E7	9.99676743937104639E-1
7.00000000999999905E7	9.99560030893217544E-1
8.00000000999999905E7	9.99425374068379568E-1
9.00000000999999905E7	9.99272778633860703E-1
1.00000000099999986E8	9.99102250448850171E-1
1.10000000099999995E8	9.98913796061528636E-1
1.20000000099999982E8	9.98707422705626691E-1
1.30000000099999991E8	9.98483138302174211E-1
1.40000000099999999E8	9.98240951457751713E-1
1.50000000099999986E8	9.97980871463627395E-1
1.60000000100000017E8	9.97702908295469015E-1
1.70000000099999982E8	9.97407072612499945E-1
1.80000000099999968E8	9.97093375755746791E-1
1.90000000099999977E8	9.96761829748209038E-1
2.00000000099999964E8	9.96412447292436987E-1
2.10000000099999928E8	9.96045241770838530E-1
2.20000000099999937E8	9.95660227243467588E-1
2.30000000099999946E8	9.95257418446936981E-1
2.40000000099999955E8	9.94836830794200111E-1
2.50000000099999919E8	9.94398480371568461E-1
2.60000000099999973E8	9.93942383938325236E-1
2.70000000099999982E8	9.93468558924899092E-1
2.80000000099999991E8	9.92977023431649108E-1
2.90000000099999955E8	9.92467796227346000E-1
3.00000000099999964E8	9.91940896746656975E-1
3.10000000099999973E8	9.91396345089734154E-1
3.20000000099999937E8	9.90834162019036313E-1
3.30000000099999991E8	9.90254368959307918E-1
3.40000000099999999E8	9.89656987993688908E-1
3.50000000100000008E8	9.89042041863715760E-1
3.60000000100000017E8	9.88409553965936993E-1
3.70000000100000026E8	9.87759548350412331E-1
3.80000000099999991E8	9.87092049718708786E-1
3.90000000099999999E8	9.86407083421929798E-1
4.00000000100000008E8	9.85704675457716206E-1
4.10000000099999973E8	9.84984852468804739E-1
4.20000000100000026E8	9.84247641740610746E-1
4.30000000099999991E8	9.83493071198733126E-1
4.40000000100000044E8	9.82721169406131345E-1
4.50000000100000008E8	9.81931965561528841E-1
4.60000000099999973E8	9.81125489496417558E-1
4.70000000100000026E8	9.80301771672360545E-1
4.80000000099999991E8	9.79460843178688734E-1
4.90000000100000044E8	9.78602735729672979E-1
5.00000000100000008E8	9.77727481661488262E-1
5.10000000099999973E8	9.76835113930779819E-1
5.20000000100000115E8	9.75925666109932699E-1
5.30000000100000079E8	9.74999172385135537E-1
5.40000000100000044E8	9.74055667554640792E-1
5.50000000100000097E8	9.73095187023222330E-1
5.60000000100000062E8	9.72117766801890681E-1
5.70000000100000115E8	9.71123443502131245E-1
5.80000000100000079E8	9.70112254335916546E-1
5.90000000100000044E8	9.69084237109365354E-1
6.00000000100000097E8	9.68039430221929997E-1
6.10000000100000062E8	9.66977872662210203E-1
6.20000000100000115E8	9.65899604004655643E-1
6.30000000100000079E8	9.64804664406427293E-1
6.40000000100000044E8	9.63693094603648781E-1
6.50000000100000097E8	9.62564935908826058E-1
6.60000000100000062E8	9.61420230206220694E-1
6.70000000100000115E8	9.60259019949818793E-1
6.80000000100000079E8	9.59081348158411373E-1
6.90000000100000044E8	9.57887258412431919E-1
7.00000000100000097E8	9.56676794851184020E-1
7.10000000100000062E8	9.55450002168016255E-1
7.20000000100000115E8	9.54206925607181589E-1
7.30000000100000079E8	9.52947610960022473E-1
7.40000000100000044E8	9.51672104561015963E-1
7.50000000100000097E8	9.50380453284996385E-1
7.60000000100000062E8	9.49072704541326218E-1
7.70000000100000115E8	9.47748906271788805E-1
7.80000000100000079E8	9.46409106945859691E-1
7.90000000100000044E8	9.45053355557087116E-1
8.00000000100000008E8	9.43681701618923441E-1
8.10000000100000150E8	9.42294195160350689E-1
8.20000000100000115E8	9.40890886722537623E-1
8.30000000100000079E8	9.39471827354598510E-1
8.40000000100000044E8	9.38037068608575986E-1
8.50000000100000008E8	9.36586662536829451E-1
8.60000000100000150E8	9.35120661686422316E-1
8.70000000100000115E8	9.33639119095357017E-1
8.80000000100000079E8	9.32142088289238835E-1
8.90000000100000044E8	9.30629623275623175E-1
9.00000000100000008E8	9.29101778540375633E-1
9.10000000100000150E8	9.27558609043456173E-1
9.20000000100000115E8	9.26000170214239127E-1
9.30000000100000079E8	9.24426517947442683E-1
9.40000000100000044E8	9.22837708598385831E-1
9.50000000100000008E8	9.21233798978881069E-1
9.60000000100000150E8	9.19614846352486737E-1
9.70000000100000115E8	9.17980908430449283E-1
9.80000000100000079E8	9.16332043366272053E-1
9.90000000100000044E8	9.14668309752485698E-1
1.00000000010000001E9	9.12989766615171305E-1
1.01000000010000024E9	9.11296473409326246E-1
1.02000000010000003E9	9.09588490015168460E-1
1.03000000010000003E9	9.07865876732592625E-1
1.04000000010000004E9	9.06128694276695867E-1
1.05000000010000005E9	9.04377003773888788E-1
1.06000000010000006E9	9.02610866755983565E-1
1.07000000010000007E9	9.00830345156480661E-1
1.08000000009999964E9	8.99035501305436746E-1
1.09000000009999987E9	8.97226397925128971E-1
1.10000000009999988E9	8.95403098124484131E-1
1.11000000009999988E9	8.93565665395076358E-1
1.12000000009999967E9	8.91714163606686938E-1
1.13000000009999968E9	8.89848657001190801E-1
1.14000000009999991E9	8.87969210188797220E-1
1.15000000009999992E9	8.86075888143443002E-1
1.16000000009999971E9	8.84168756196622319E-1
1.17000000009999972E9	8.82247880034304366E-1
1.18000000009999972E9	8.80313325690579163E-1
1.19000000009999995E9	8.78365159543829144E-1
1.20000000009999974E9	8.76403448311653577E-1
1.21000000009999975E9	8.74428259045208556E-1
1.22000000009999976E9	8.72439659125580569E-1
1.23000000009999977E9	8.70437716257789518E-1
1.24000000009999978E9	8.68422498466486203E-1
1.25000000009999979E9	8.66394074091256883E-1
1.26000000009999980E9	8.64352511781011046E-1
1.27000000009999980E9	8.62297880489405522E-1
1.28000000009999981E9	8.60230249470369124E-1
1.29000000009999982E9	8.58149688272246358E-1
1.30000000009999983E9	8.56056266733894589E-1
1.31000000009999984E9	8.53950054979032203E-1
1.32000000009999985E9	8.51831123411273161E-1
1.33000000009999964E9	8.49699542709801570E-1
1.34000000009999987E9	8.47555383824089148E-1
1.35000000009999988E9	8.45398717968683933E-1
1.36000000009999988E9	8.43229616618927480E-1
1.37000000009999967E9	8.41048151505275676E-1
1.38000000009999968E9	8.38854394608985388E-1
1.39000000009999991E9	8.36648418156783080E-1
1.40000000009999992E9	8.34430294616212365E-1
1.41000000009999971E9	8.32200096690369939E-1
1.42000000009999972E9	8.29957897313675907E-1
1.43000000009999972E9	8.27703769645896159E-1
1.44000000009999995E9	8.25437787068162443E-1
1.45000000009999974E9	8.23160023177534939E-1
1.46000000009999975E9	8.20870551782273417E-1
1.47000000009999976E9	8.18569446897281949E-1
1.48000000009999977E9	8.16256782738461517E-1
1.49000000009999978E9	8.13932633718554754E-1
1.50000000009999979E9	8.11597074441807464E-1
1.51000000009999980E9	8.09250179699093408E-1
1.52000000009999980E9	8.06892024463577684E-1
1.53000000009999981E9	8.04522683885312162E-1
1.54000000009999982E9	8.02142233286634010E-1
1.55000000009999983E9	7.99750748157547431E-1
1.56000000009999984E9	7.97348304150157006E-1
1.57000000009999985E9	7.94934977074884408E-1
1.58000000009999964E9	7.92510842894764522E-1
1.59000000009999987E9	7.90075977721429190E-1
1.60000000009999965E9	7.87630457809702023E-1
1.61000000009999988E9	7.85174359553096668E-1
1.62000000009999989E9	7.82707759479478504E-1
1.63000000009999968E9	7.80230734245602520E-1
1.64000000010000013E9	7.77743360632878478E-1
1.65000000009999992E9	7.75245715542252078E-1
1.66000000010000015E9	7.72737875990716638E-1
1.67000000009999994E9	7.70219919104553785E-1
1.68000000010000017E9	7.67691922116815739E-1
1.69000000010000018E9	7.65153962361306661E-1
1.70000000009999996E9	7.62606117268615158E-1
1.71000000010000019E9	7.60048464361234899E-1
1.72000000009999998E9	7.57481081249123722E-1
1.73000000009999999E9	7.54904045625289566E-1
1.74000000010000022E9	7.52317435260610345E-1
1.75000000010000001E9	7.49721328000303444E-1
1.76000000010000024E9	7.47115801758341647E-1
1.77000000010000003E9	7.44500934514109591E-1
1.78000000010000003E9	7.41876804306856030E-1
1.79000000010000027E9	7.39243489231888429E-1
1.80000000010000005E9	7.36601067436217960E-1
1.81000000010000006E9	7.33949617113775865E-1
1.82000000009999985E9	7.31289216501164407E-1
1.83000000010000008E9	7.28619943873382070E-1
1.84000000010000031E9	7.25941877539719904E-1
1.85000000010000010E9	7.23255095839089091E-1
1.86000000010000011E9	7.20559677135344145E-1
1.87000000009999989E9	7.17855699814454962E-1
1.88000000010000012E9	7.15143242278550595E-1
1.89000000010000013E9	7.12422382942928856E-1
1.90000000009999992E9	7.09693200231310506E-1
1.91000000010000015E9	7.06955772571849828E-1
1.92000000009999994E9	7.04210178392759722E-1
1.93000000010000017E9	7.01456496118686879E-1
1.94000000010000018E9	6.98694804166271766E-1
1.95000000009999996E9	6.95925180939939381E-1
1.96000000010000019E9	6.93147704828183286E-1
1.97000000009999998E9	6.90362454199548381E-1
1.98000000009999999E9	6.87569507398374569E-1
1.99000000010000022E9	6.84768942741241382E-1
2.00000000010000001E9	6.81960838512472911E-1
2.01000000010000024E9	6.79145272960957769E-1
2.02000000010000003E9	6.76322324295527366E-1
2.03000000010000026E9	6.73492070681842314E-1
2.04000000010000004E9	6.70654590237870174E-1
2.05000000009999983E9	6.67809961030772392E-1
2.06000000009999962E9	6.64958261072513501E-1
2.07000000009999985E9	6.62099568316757647E-1
2.08000000009999964E9	6.59233960654308060E-1
2.09000000009999987E9	6.56361515910568905E-1
2.10000000009999965E9	6.53482311841040886E-1
2.11000000009999988E9	6.50596426127731320E-1
2.12000000010000011E9	6.47703936376216660E-1
2.13000000009999990E9	6.44804920111518953E-1
2.14000000009999969E9	6.41899454774563338E-1
2.15000000009999948E9	6.38987617719165613E-1
2.16000000009999971E9	6.36069486208106483E-1
2.17000000009999994E9	6.33145137409677972E-1
2.18000000009999972E9	6.30214648394632704E-1
2.19000000009999995E9	6.27278096132780849E-1
2.20000000009999974E9	6.24335557489312087E-1
2.21000000009999997E9	6.21387109221707590E-1
2.22000000009999976E9	6.18432827976320265E-1
2.23000000009999955E9	6.15472790285456028E-1
2.24000000009999978E9	6.12507072563843025E-1
2.25000000009999956E9	6.09535751105583667E-1
2.26000000009999980E9	6.06558902080717832E-1
2.27000000010000003E9	6.03576601532583368E-1
2.28000000009999981E9	6.00588925374436933E-1
2.29000000010000004E9	5.97595949386574787E-1
2.30000000009999983E9	5.94597749212734339E-1
2.31000000009999962E9	5.91594400358003192E-1
2.32000000009999985E9	5.88585978184999803E-1
2.33000000009999964E9	5.85572557911809177E-1
2.34000000009999987E9	5.82554214608039977E-1
2.35000000009999965E9	5.79531023192951800E-1
2.36000000009999988E9	5.76503058431767190E-1
2.37000000010000011E9	5.73470394933838890E-1
2.38000000009999990E9	5.70433107148924634E-1
2.39000000009999969E9	5.67391269364898143E-1
2.40000000009999948E9	5.64344955705081297E-1
2.41000000009999971E9	5.61294240125406851E-1
2.42000000009999994E9	5.58239196411872740E-1
2.43000000009999972E9	5.55179898177998510E-1
2.44000000009999995E9	5.52116418862147906E-1
2.45000000009999974E9	5.49048831724665121E-1
2.46000000009999997E9	5.45977209846217271E-1
2.47000000009999976E9	5.42901626124310432E-1
2.48000000009999955E9	5.39822153271788352E-1
2.49000000009999978E9	5.36738863813400968E-1
2.50000000009999956E9	5.33651830084439727E-1
2.51000000009999980E9	5.30561124227605418E-1
2.52000000010000003E9	5.27466818191077813E-1
2.53000000009999981E9	5.24368983726271942E-1
2.54000000010000004E9	5.21267692385249681E-1
2.55000000009999983E9	5.18163015518655001E-1
2.56000000010000006E9	5.15055024273855899E-1
2.57000000009999985E9	5.11943789592302068E-1
2.58000000010000008E9	5.08829382207450287E-1
2.59000000010000031E9	5.05711872642994553E-1
2.60000000010000010E9	5.02591331210578307E-1
2.61000000010000033E9	4.99467828007806602E-1
2.62000000010000011E9	4.96341432916119096E-1
2.63000000009999990E9	4.93212215598897163E-1
2.64000000010000013E9	4.90080245499691980E-1
2.65000000009999992E9	4.86945591840160397E-1
2.66000000010000015E9	4.83808323618192926E-1
2.67000000009999994E9	4.80668509605930439E-1
2.68000000010000017E9	4.77526218348355069E-1
2.69000000010000040E9	4.74381518160982729E-1
2.70000000010000019E9	4.71234477128639639E-1
2.71000000009999997E9	4.68085163103314716E-1
2.72000000009999976E9	4.64933643702648070E-1
2.73000000009999999E9	4.61779986308140700E-1
2.74000000010000022E9	4.58624258064005375E-1
2.75000000010000001E9	4.55466525874892003E-1
2.76000000010000024E9	4.52306856404641344E-1
2.77000000010000003E9	4.49145316074844203E-1
2.78000000010000026E9	4.45981971063116944E-1
2.79000000010000004E9	4.42816887301774997E-1
2.80000000009999983E9	4.39650130476327128E-1
2.81000000010000006E9	4.36481766024156492E-1
2.82000000009999985E9	4.33311859132715149E-1
2.83000000010000008E9	4.30140474738773815E-1
2.84000000010000031E9	4.26967677526757239E-1
2.85000000010000010E9	4.23793531927298961E-1
2.86000000010000033E9	4.20618102116362635E-1
2.87000000010000011E9	4.17441452013527670E-1
2.88000000009999990E9	4.14263645281367232E-1
2.89000000010000013E9	4.11084745323447365E-1
2.90000000009999992E9	4.07904815284117639E-1
2.91000000010000015E9	4.04723918046526521E-1
2.92000000009999994E9	4.01542116232047874E-1
2.93000000010000017E9	3.98359472199020015E-1
2.94000000010000040E9	3.95176048041558703E-1
2.95000000010000019E9	3.91991905589046841E-1
2.96000000009999997E9	3.88807106404362113E-1
2.97000000009999976E9	3.85621711783598942E-1
2.98000000009999999E9	3.82435782754769082E-1
2.99000000010000022E9	3.79249380076949860E-1
3.00000000010000001E9	3.76062564239594055E-1
3.01000000010000024E9	3.72875395461234493E-1
3.02000000010000003E9	3.69687933689040404E-1
3.03000000010000026E9	3.66500238598043593E-1
3.04000000010000004E9	3.63312369589909201E-1
3.05000000009999983E9	3.60124385792738311E-1
3.06000000010000006E9	3.56936346059741672E-1
3.07000000009999985E9	3.53748308969296099E-1
3.08000000010000008E9	3.50560332823437237E-1
3.09000000010000031E9	3.47372475647697465E-1
3.10000000010000010E9	3.44184795190565218E-1
3.11000000010000033E9	3.40997348922461141E-1
3.12000000010000011E9	3.37810194035476741E-1
3.13000000009999990E9	3.34623387442740894E-1
3.14000000010000013E9	3.31436985777752158E-1
3.15000000009999992E9	3.28251045394160501E-1
3.16000000010000015E9	3.25065622365025675E-1
3.17000000009999994E9	3.21880772482412203E-1
3.18000000010000017E9	3.18696551257104277E-1
3.19000000010000040E9	3.15513013917830598E-1
3.20000000010000019E9	3.12330215411338763E-1
3.21000000009999997E9	3.09148210401748447E-1
3.22000000009999976E9	3.05967053270119083E-1
3.23000000009999999E9	3.02786798114447864E-1
3.24000000010000022E9	2.99607498749028922E-1
3.25000000010000045E9	2.96429208704364511E-1
3.26000000009999980E9	2.93251981226971603E-1
3.27000000010000003E9	2.90075869278844323E-1
3.28000000009999937E9	2.86900925537656670E-1
3.29000000009999960E9	2.83727202396141687E-1
3.30000000009999983E9	2.80554751962258209E-1
3.31000000009999962E9	2.77383626058799182E-1
3.32000000009999940E9	2.74213876223489139E-1
3.33000000009999919E9	2.71045553708624265E-1
3.34000000009999942E9	2.67878709481168542E-1
3.35000000009999965E9	2.64713394222652276E-1
3.36000000009999988E9	2.61549658329018442E-1
3.37000000010000011E9	2.58387551910636226E-1
3.38000000009999990E9	2.55227124792415161E-1
3.39000000010000013E9	2.52068426513649246E-1
3.40000000010000036E9	2.48911506328076015E-1
3.41000000009999971E9	2.45756413204002655E-1
3.42000000009999994E9	2.42603195824331097E-1
3.43000000010000017E9	2.39451902586522491E-1
3.44000000010000040E9	2.36302581602904960E-1
3.45000000010000019E9	2.33155280700534595E-1
3.46000000009999997E9	2.30010047421735253E-1
3.47000000009999976E9	2.26866929023764818E-1
3.48000000009999999E9	2.23725972479271951E-1
3.49000000010000022E9	2.20587224476531452E-1
3.50000000010000045E9	2.17450731419372323E-1
3.51000000009999980E9	2.14316539427821251E-1
3.52000000010000003E9	2.11184694337779533E-1
3.53000000010000026E9	2.08055241701921911E-1
3.54000000010000004E9	2.04928226789382606E-1
3.55000000010000027E9	2.01803694586393467E-1
3.56000000009999962E9	1.98681689796534888E-1
3.57000000009999985E9	1.95562256840907445E-1
3.58000000010000008E9	1.92445439858678125E-1
3.59000000010000031E9	1.89331282707211557E-1
3.60000000010000054E9	1.86219828962623568E-1
3.61000000009999988E9	1.83111121920043196E-1
3.62000000010000011E9	1.80005204594086310E-1
3.63000000009999990E9	1.76902119719126505E-1
3.64000000010000013E9	1.73801909749818684E-1
3.65000000010000036E9	1.70704616861652392E-1
3.66000000009999971E9	1.67610282951132561E-1
3.67000000009999994E9	1.64518949636431655E-1
3.68000000010000017E9	1.61430658257857296E-1
3.69000000010000040E9	1.58345449878255051E-1
3.70000000010000019E9	1.55263365283568433E-1
3.71000000009999997E9	1.52184444983357148E-1
3.72000000009999976E9	1.49108729211348878E-1
3.73000000009999999E9	1.46036257925936219E-1
3.74000000010000022E9	1.42967070810638974E-1
3.75000000010000045E9	1.39901207274959027E-1
3.76000000009999980E9	1.36838706454667447E-1
3.77000000010000003E9	1.33779607212496821E-1
3.78000000010000026E9	1.30723948138804058E-1
3.79000000010000004E9	1.27671767552066440E-1
3.80000000010000027E9	1.24623103499646559E-1
3.81000000009999962E9	1.21577993758247072E-1
3.82000000009999985E9	1.18536475834795763E-1
3.83000000010000008E9	1.15498586966865435E-1
3.84000000010000031E9	1.12464364123449956E-1
3.85000000010000054E9	1.09433844005675684E-1
3.86000000009999988E9	1.06407063047464057E-1
3.87000000010000011E9	1.03384057416161745E-1
3.88000000009999990E9	1.00364863013317374E-1
3.89000000010000013E9	9.73495154754284719E-2
3.90000000010000036E9	9.43380501746258204E-2
3.91000000009999971E9	9.13305022193555693E-2
3.92000000009999994E9	8.83269064552578698E-2
3.93000000010000017E9	8.53272974657595107E-2
3.94000000010000040E9	8.23317095730298121E-2
3.95000000010000019E9	7.93401768385382233E-2
3.96000000009999997E9	7.63527330640678681E-2
3.97000000009999976E9	7.33694117922778499E-2
3.98000000009999999E9	7.03902463076797602E-2
3.99000000010000022E9	6.74152696373437887E-2
4.00000000010000001E9	6.44445145517129614E-2
4.01000000009999980E9	6.14780135655441651E-2
4.02000000009999958E9	5.85157989385520771E-2
4.03000000010000026E9	5.55579026763899364E-2
4.04000000010000004E9	5.26043565314409101E-2
4.05000000010000072E9	4.96551920036452099E-2
4.06000000009999962E9	4.67104403414428937E-2
4.07000000010000029E9	4.37701325425141619E-2
4.08000000010000008E9	4.08342993547792243E-2
4.09000000009999987E9	3.79029712771752347E-2
4.10000000010000054E9	3.49761785606295117E-2
4.11000000009999944E9	3.20539512088275913E-2
4.12000000010000011E9	2.91363189792561705E-2
4.13000000009999990E9	2.62233113840220078E-2
4.14000000010000058E9	2.33149576907438760E-2
4.15000000010000036E9	2.04112869235302252E-2
4.16000000010000015E9	1.75123278638456004E-2
4.17000000009999994E9	1.46181090514894141E-2
4.18000000009999972E9	1.17286587854441571E-2
4.19000000010000040E9	8.84400512489924573E-3
4.20000000009999930E9	5.96417589012854243E-3
4.21000000009999908E9	3.08919866348733585E-3
4.22000000009999887E9	2.19100790314508131E-4
4.23000000009999866E9	-2.64609062008036577E-3
4.24000000009999845E9	-5.50634869348620715E-3
4.25000000009999912E9	-8.36164678977580067E-3
4.26000000009999891E9	-1.12119585020152845E-2
4.27000000009999958E9	-1.40572576554208739E-2
4.28000000009999848E9	-1.68975183064320467E-2
4.29000000009999916E9	-1.97327147416814785E-2
4.30000000009999894E9	-2.25628214770745572E-2
4.31000000009999873E9	-2.53878132567441073E-2
4.32000000009999940E9	-2.82076650521269068E-2
4.33000000009999830E9	-3.10223520608725600E-2
4.34000000009999898E9	-3.38318497059459933E-2
4.35000000009999876E9	-3.66361336345812916E-2
4.36000000009999944E9	-3.94351797172689533E-2
4.37000000009999923E9	-4.22289640467921057E-2
4.38000000009999901E9	-4.50174629371572443E-2
4.39000000009999880E9	-4.78006529226409071E-2
4.40000000009999859E9	-5.05785107567482406E-2
4.41000000009999926E9	-5.33510134111921985E-2
4.42000000009999905E9	-5.61181380748986314E-2
